#Distance(A) Planar-Average-Potential(eV)/Densitiy(e/A)
  0.0000             5.73680
  0.0670             5.73651
  0.1339             5.73621
  0.2009             5.73591
  0.2679             5.73560
  0.3348             5.73529
  0.4018             5.73496
  0.4688             5.73462
  0.5357             5.73427
  0.6027             5.73391
  0.6696             5.73353
  0.7366             5.73312
  0.8036             5.73269
  0.8705             5.73222
  0.9375             5.73173
  1.0045             5.73119
  1.0714             5.73061
  1.1384             5.72995
  1.2054             5.72924
  1.2723             5.72843
  1.3393             5.72755
  1.4062             5.72652
  1.4732             5.72539
  1.5402             5.72407
  1.6071             5.72259
  1.6741             5.72085
  1.7411             5.71890
  1.8080             5.71659
  1.8750             5.71396
  1.9420             5.71084
  2.0089             5.70728
  2.0759             5.70305
  2.1429             5.69818
  2.2098             5.69239
  2.2768             5.68570
  2.3438             5.67774
  2.4107             5.66850
  2.4777             5.65751
  2.5446             5.64469
  2.6116             5.62945
  2.6786             5.61163
  2.7455             5.59043
  2.8125             5.56558
  2.8795             5.53600
  2.9464             5.50123
  3.0134             5.45983
  3.0804             5.41105
  3.1473             5.35292
  3.2143             5.28431
  3.2812             5.20242
  3.3482             5.10559
  3.4152             4.98976
  3.4821             4.85256
  3.5491             4.68783
  3.6161             4.49259
  3.6830             4.25692
  3.7500             4.01033
  3.8170             3.75130
  3.8839             3.37630
  3.9509             2.79781
  4.0179             1.99192
  4.0848             0.95714
  4.1518            -0.29193
  4.2188            -1.72146
  4.2857            -3.28339
  4.3527            -4.91603
  4.4196            -6.55528
  4.4866            -8.13882
  4.5536            -9.61319
  4.6205           -10.93294
  4.6875           -12.06324
  4.7545           -12.97663
  4.8214           -13.65423
  4.8884           -14.08235
  4.9554           -14.25376
  5.0223           -14.16491
  5.0893           -13.81788
  5.1562           -13.21839
  5.2232           -12.37859
  5.2902           -11.31567
  5.3571           -10.05550
  5.4241            -8.63130
  5.4911            -7.08738
  5.5580            -5.47668
  5.6250            -3.86277
  5.6920            -2.31325
  5.7589            -0.89724
  5.8259             0.32698
  5.8929             1.31302
  5.9598             2.03412
  6.0268             2.47574
  6.0938             2.67072
  6.1607             2.69391
  6.2277             2.56622
  6.2946             2.23576
  6.3616             1.63607
  6.4286             0.76538
  6.4955            -0.35668
  6.5625            -1.69235
  6.6295            -3.19014
  6.6964            -4.78474
  6.7634            -6.40785
  6.8304            -7.99283
  6.8973            -9.48214
  6.9643           -10.82689
  7.0312           -11.98938
  7.0982           -12.94005
  7.1652           -13.65833
  7.2321           -14.12934
  7.2991           -14.34479
  7.3661           -14.30028
  7.4330           -13.99696
  7.5000           -13.43959
  7.5670           -12.63903
  7.6339           -11.61115
  7.7009           -10.37996
  7.7679            -8.97691
  7.8348            -7.44416
  7.9018            -5.83294
  7.9688            -4.20520
  8.0357            -2.62832
  8.1027            -1.17205
  8.1696             0.10253
  8.2366             1.14634
  8.3036             1.92870
  8.3705             2.43220
  8.4375             2.67759
  8.5045             2.73932
  8.5714             2.65021
  8.6384             2.36848
  8.7054             1.82217
  8.7723             0.99963
  8.8393            -0.08038
  8.9062            -1.38401
  8.9732            -2.86074
  9.0402            -4.44764
  9.1071            -6.07521
  9.1741            -7.67660
  9.2411            -9.19155
  9.3080           -10.57021
  9.3750           -11.77212
  9.4420           -12.76704
  9.5089           -13.53205
  9.5759           -14.05211
  9.6429           -14.31698
  9.7098           -14.32252
  9.7768           -14.06808
  9.8438           -13.55883
  9.9107           -12.80368
  9.9777           -11.81869
 10.0446           -10.62537
 10.1116            -9.25504
 10.1786            -7.74668
 10.2455            -6.15149
 10.3125            -4.52826
 10.3795            -2.94580
 10.4464            -1.47227
 10.5134            -0.17382
 10.5804             0.90061
 10.6473             1.71293
 10.7143             2.26757
 10.7812             2.55574
 10.8482             2.57108
 10.9152             2.38369
 10.9821             2.02338
 11.0491             1.41863
 11.1161             0.54548
 11.1830            -0.56859
 11.2500            -1.88838
 11.3170            -3.35953
 11.3839            -4.92287
 11.4509            -6.51208
 11.5179            -8.06554
 11.5848            -9.52563
 11.6518           -10.84564
 11.7188           -11.98648
 11.7857           -12.91961
 11.8527           -13.62297
 11.9196           -14.08262
 11.9866           -14.28924
 12.0536           -14.23982
 12.1205           -13.93512
 12.1875           -13.38177
 12.2545           -12.59080
 12.3214           -11.57998
 12.3884           -10.37338
 12.4554            -9.00359
 12.5223            -7.51140
 12.5893            -5.94675
 12.6562            -4.36655
 12.7232            -2.83178
 12.7902            -1.40185
 12.8571            -0.12921
 12.9241             0.94474
 12.9911             1.79481
 13.0580             2.41068
 13.1250             2.81870
 13.1920             3.07238
 13.2589             3.20379
 13.3259             3.23899
 13.3929             3.20275
 13.4598             3.08070
 13.5268             2.87603
 13.5938             2.55417
 13.6607             2.05963
 13.7277             1.34914
 13.7946             0.38633
 13.8616            -0.81408
 13.9286            -2.20546
 13.9955            -3.71586
 14.0625            -5.27124
 14.1295            -6.78391
 14.1964            -8.20406
 14.2634            -9.51220
 14.3304           -10.68353
 14.3973           -11.68162
 14.4643           -12.46397
 14.5312           -13.00486
 14.5982           -13.28645
 14.6652           -13.30316
 14.7321           -13.06177
 14.7991           -12.57740
 14.8661           -11.87420
 14.9330           -10.98831
 15.0000            -9.96902
 15.0670            -8.87686
 15.1339            -7.78061
 15.2009            -6.74834
 15.2679            -5.83592
 15.3348            -5.06904
 15.4018            -4.43069
 15.4688            -3.86529
 15.5357            -3.34058
 15.6027            -2.84797
 15.6696            -2.38324
 15.7366            -1.97620
 15.8036            -1.64165
 15.8705            -1.38915
 15.9375            -1.21306
 16.0045            -1.09301
 16.0714            -0.99186
 16.1384            -0.90184
 16.2054            -0.83627
 16.2723            -0.79286
 16.3393            -0.76450
 16.4062            -0.75267
 16.4732            -0.79626
 16.5402            -0.94823
 16.6071            -1.24575
 16.6741            -1.67123
 16.7411            -2.20400
 16.8080            -2.82034
 16.8750            -3.49830
 16.9420            -4.21357
 17.0089            -4.93497
 17.0759            -5.69661
 17.1429            -6.58469
 17.2098            -7.63844
 17.2768            -8.84269
 17.3438           -10.13987
 17.4107           -11.44887
 17.4777           -12.68037
 17.5446           -13.75277
 17.6116           -14.59861
 17.6786           -15.16724
 17.7455           -15.43831
 17.8125           -15.40302
 17.8795           -15.06438
 17.9464           -14.43938
 18.0134           -13.55726
 18.0804           -12.45237
 18.1473           -11.16078
 18.2143            -9.71073
 18.2812            -8.12772
 18.3482            -6.43170
 18.4152            -4.70217
 18.4821            -3.01471
 18.5491            -1.41854
 18.6161             0.01500
 18.6830             1.23482
 18.7500             2.19553
 18.8170             2.89740
 18.8839             3.40538
 18.9509             3.81918
 19.0179             4.18424
 19.0848             4.48630
 19.1518             4.73069
 19.2188             4.92930
 19.2857             5.08983
 19.3527             5.22013
 19.4196             5.32532
 19.4866             5.41073
 19.5536             5.47960
 19.6205             5.53559
 19.6875             5.58067
 19.7545             5.61740
 19.8214             5.64691
 19.8884             5.67103
 19.9554             5.69035
 20.0223             5.70620
 20.0893             5.71883
 20.1562             5.72924
 20.2232             5.73747
 20.2902             5.74430
 20.3571             5.74963
 20.4241             5.75409
 20.4911             5.75751
 20.5580             5.76041
 20.6250             5.76256
 20.6920             5.76444
 20.7589             5.76575
 20.8259             5.76693
 20.8929             5.76769
 20.9598             5.76842
 21.0268             5.76882
 21.0938             5.76924
 21.1607             5.76939
 21.2277             5.76961
 21.2946             5.76960
 21.3616             5.76968
 21.4286             5.76957
 21.4955             5.76956
 21.5625             5.76938
 21.6295             5.76931
 21.6964             5.76907
 21.7634             5.76896
 21.8304             5.76870
 21.8973             5.76856
 21.9643             5.76828
 22.0312             5.76812
 22.0982             5.76783
 22.1652             5.76766
 22.2321             5.76735
 22.2991             5.76717
 22.3661             5.76687
 22.4330             5.76668
 22.5000             5.76637
 22.5670             5.76618
 22.6339             5.76587
 22.7009             5.76567
 22.7679             5.76537
 22.8348             5.76517
 22.9018             5.76486
 22.9688             5.76466
 23.0357             5.76435
 23.1027             5.76415
 23.1696             5.76385
 23.2366             5.76365
 23.3036             5.76334
 23.3705             5.76314
 23.4375             5.76284
 23.5045             5.76263
 23.5714             5.76233
 23.6384             5.76213
 23.7054             5.76183
 23.7723             5.76162
 23.8393             5.76132
 23.9062             5.76112
 23.9732             5.76082
 24.0402             5.76061
 24.1071             5.76032
 24.1741             5.76011
 24.2411             5.75981
 24.3080             5.75960
 24.3750             5.75931
 24.4420             5.75910
 24.5089             5.75881
 24.5759             5.75860
 24.6429             5.75830
 24.7098             5.75809
 24.7768             5.75780
 24.8438             5.75758
 24.9107             5.75729
 24.9777             5.75708
 25.0446             5.75678
 25.1116             5.75657
 25.1786             5.75627
 25.2455             5.75606
 25.3125             5.75576
 25.3795             5.75554
 25.4464             5.75525
 25.5134             5.75503
 25.5804             5.75474
 25.6473             5.75451
 25.7143             5.75422
 25.7812             5.75399
 25.8482             5.75370
 25.9152             5.75347
 25.9821             5.75318
 26.0491             5.75295
 26.1161             5.75266
 26.1830             5.75242
 26.2500             5.75213
 26.3170             5.75190
 26.3839             5.75160
 26.4509             5.75136
 26.5179             5.75107
 26.5848             5.75083
 26.6518             5.75054
 26.7188             5.75029
 26.7857             5.75000
 26.8527             5.74976
 26.9196             5.74946
 26.9866             5.74922
 27.0536             5.74892
 27.1205             5.74867
 27.1875             5.74838
 27.2545             5.74813
 27.3214             5.74783
 27.3884             5.74758
 27.4554             5.74729
 27.5223             5.74704
 27.5893             5.74674
 27.6562             5.74649
 27.7232             5.74619
 27.7902             5.74594
 27.8571             5.74564
 27.9241             5.74539
 27.9911             5.74509
 28.0580             5.74483
 28.1250             5.74454
 28.1920             5.74428
 28.2589             5.74399
 28.3259             5.74373
 28.3929             5.74344
 28.4598             5.74318
 28.5268             5.74289
 28.5938             5.74263
 28.6607             5.74234
 28.7277             5.74208
 28.7946             5.74179
 28.8616             5.74153
 28.9286             5.74124
 28.9955             5.74098
 29.0625             5.74069
 29.1295             5.74043
 29.1964             5.74015
 29.2634             5.73988
 29.3304             5.73960
 29.3973             5.73933
 29.4643             5.73905
 29.5312             5.73878
 29.5982             5.73849
 29.6652             5.73822
 29.7321             5.73794
 29.7991             5.73766
 29.8661             5.73737
 29.9330             5.73709
