#Distance(A) Planar-Average-Potential(eV)/Densitiy(e/A)
  0.0000             4.61770
  0.0670             4.61904
  0.1339             4.62031
  0.2009             4.62169
  0.2679             4.62301
  0.3348             4.62444
  0.4018             4.62580
  0.4688             4.62728
  0.5357             4.62868
  0.6027             4.63019
  0.6696             4.63163
  0.7366             4.63318
  0.8036             4.63465
  0.8705             4.63624
  0.9375             4.63774
  1.0045             4.63935
  1.0714             4.64088
  1.1384             4.64253
  1.2054             4.64408
  1.2723             4.64575
  1.3393             4.64732
  1.4062             4.64900
  1.4732             4.65059
  1.5402             4.65229
  1.6071             4.65388
  1.6741             4.65559
  1.7411             4.65719
  1.8080             4.65891
  1.8750             4.66050
  1.9420             4.66222
  2.0089             4.66381
  2.0759             4.66553
  2.1429             4.66711
  2.2098             4.66881
  2.2768             4.67037
  2.3438             4.67206
  2.4107             4.67360
  2.4777             4.67527
  2.5446             4.67678
  2.6116             4.67842
  2.6786             4.67990
  2.7455             4.68151
  2.8125             4.68295
  2.8795             4.68451
  2.9464             4.68591
  3.0134             4.68743
  3.0804             4.68877
  3.1473             4.69024
  3.2143             4.69153
  3.2812             4.69294
  3.3482             4.69417
  3.4152             4.69552
  3.4821             4.69667
  3.5491             4.69796
  3.6161             4.69903
  3.6830             4.70025
  3.7500             4.70124
  3.8170             4.70238
  3.8839             4.70329
  3.9509             4.70434
  4.0179             4.70516
  4.0848             4.70612
  4.1518             4.70685
  4.2188             4.70772
  4.2857             4.70834
  4.3527             4.70911
  4.4196             4.70962
  4.4866             4.71029
  4.5536             4.71070
  4.6205             4.71126
  4.6875             4.71155
  4.7545             4.71200
  4.8214             4.71217
  4.8884             4.71250
  4.9554             4.71254
  5.0223             4.71276
  5.0893             4.71266
  5.1562             4.71274
  5.2232             4.71250
  5.2902             4.71244
  5.3571             4.71205
  5.4241             4.71183
  5.4911             4.71126
  5.5580             4.71086
  5.6250             4.71009
  5.6920             4.70949
  5.7589             4.70848
  5.8259             4.70763
  5.8929             4.70634
  5.9598             4.70518
  6.0268             4.70353
  6.0938             4.70197
  6.1607             4.69985
  6.2277             4.69778
  6.2946             4.69505
  6.3616             4.69227
  6.4286             4.68872
  6.4955             4.68500
  6.5625             4.68032
  6.6295             4.67529
  6.6964             4.66906
  6.7634             4.66223
  6.8304             4.65384
  6.8973             4.64449
  6.9643             4.63311
  7.0312             4.62023
  7.0982             4.60465
  7.1652             4.58682
  7.2321             4.56534
  7.2991             4.54054
  7.3661             4.51075
  7.4330             4.47614
  7.5000             4.43466
  7.5670             4.38618
  7.6339             4.32820
  7.7009             4.26014
  7.7679             4.17885
  7.8348             4.08313
  7.9018             3.96895
  7.9688             3.83413
  8.0357             3.67350
  8.1027             3.48325
  8.1696             3.25711
  8.2366             2.98730
  8.3036             2.68577
  8.3705             2.39283
  8.4375             2.02786
  8.5045             1.51984
  8.5714             0.75889
  8.6384            -0.35900
  8.7054            -1.71162
  8.7723            -3.23427
  8.8393            -4.85287
  8.9062            -6.50802
  8.9732            -8.15379
  9.0402            -9.73871
  9.1071           -11.21044
  9.1741           -12.51961
  9.2411           -13.62556
  9.3080           -14.49438
  9.3750           -15.10215
  9.4420           -15.43076
  9.5089           -15.47225
  9.5759           -15.22380
  9.6429           -14.69371
  9.7098           -13.89531
  9.7768           -12.85467
  9.8438           -11.60302
  9.9107           -10.18628
  9.9777            -8.65397
 10.0446            -7.06875
 10.1116            -5.48643
 10.1786            -3.96796
 10.2455            -2.56798
 10.3125            -1.38051
 10.3795            -0.45307
 10.4464             0.12771
 10.5134             0.33696
 10.5804             0.23314
 10.6473            -0.21159
 10.7143            -1.03045
 10.7812            -2.13911
 10.8482            -3.48098
 10.9152            -4.97971
 10.9821            -6.55619
 11.0491            -8.15947
 11.1161            -9.72749
 11.1830           -11.20458
 11.2500           -12.53283
 11.3170           -13.66943
 11.3839           -14.57508
 11.4509           -15.22553
 11.5179           -15.59950
 11.5848           -15.68929
 11.6518           -15.48962
 11.7188           -15.00850
 11.7857           -14.25654
 11.8527           -13.25846
 11.9196           -12.04218
 11.9866           -10.65167
 12.0536            -9.13370
 12.1205            -7.55045
 12.1875            -5.95794
 12.2545            -4.41960
 12.3214            -2.98736
 12.3884            -1.75569
 12.4554            -0.76090
 12.5223            -0.09239
 12.5893             0.14763
 12.6562             0.04419
 12.7232            -0.46161
 12.7902            -1.34877
 12.8571            -2.48914
 12.9241            -3.85459
 12.9911            -5.35979
 13.0580            -6.93739
 13.1250            -8.53061
 13.1920           -10.07964
 13.2589           -11.52513
 13.3259           -12.81329
 13.3929           -13.90029
 13.4598           -14.75101
 13.5268           -15.34085
 13.5938           -15.65235
 13.6607           -15.67789
 13.7277           -15.41596
 13.7946           -14.87500
 13.8616           -14.06921
 13.9286           -13.02379
 13.9955           -11.77017
 14.0625           -10.35263
 14.1295            -8.82119
 14.1964            -7.23687
 14.2634            -5.65714
 14.3304            -4.14177
 14.3973            -2.75261
 14.4643            -1.57365
 14.5312            -0.63103
 14.5982            -0.07576
 14.6652             0.06114
 14.7321            -0.17176
 14.7991            -0.83680
 14.8661            -1.81413
 14.9330            -3.03422
 15.0000            -4.44962
 15.0670            -5.98041
 15.1339            -7.56607
 15.2009            -9.14750
 15.2679           -10.66448
 15.3348           -12.05891
 15.4018           -13.28021
 15.4688           -14.28708
 15.5357           -15.04806
 15.6027           -15.54088
 15.6696           -15.75239
 15.7366           -15.67764
 15.8036           -15.32023
 15.8705           -14.69090
 15.9375           -13.80867
 16.0045           -12.69901
 16.0714           -11.39651
 16.1384            -9.94204
 16.2054            -8.38557
 16.2723            -6.77773
 16.3393            -5.17114
 16.4062            -3.61373
 16.4732            -2.17811
 16.5402            -0.92964
 16.6071             0.03020
 16.6741             0.63886
 16.7411             0.99300
 16.8080             1.16765
 16.8750             1.23943
 16.9420             1.23803
 17.0089             1.14045
 17.0759             0.85824
 17.1429             0.32257
 17.2098            -0.49131
 17.2768            -1.53352
 17.3438            -2.69416
 17.4107            -3.85659
 17.4777            -4.93049
 17.5446            -5.86516
 17.6116            -6.65316
 17.6786            -7.31888
 17.7455            -7.88917
 17.8125            -8.37198
 17.8795            -8.74465
 17.9464            -8.96167
 18.0134            -8.97664
 18.0804            -8.77186
 18.1473            -8.37736
 18.2143            -7.87588
 18.2812            -7.38286
 18.3482            -7.01039
 18.4152            -6.81652
 18.4821            -6.77253
 18.5491            -6.77556
 18.6161            -6.84486
 18.6830            -7.04463
 18.7500            -7.41607
 18.8170            -7.92969
 18.8839            -8.47901
 18.9509            -8.94606
 19.0179            -9.23176
 19.0848            -9.29178
 19.1518            -9.13147
 19.2188            -8.79716
 19.2857            -8.34022
 19.3527            -7.79542
 19.4196            -7.15946
 19.4866            -6.40163
 19.5536            -5.47941
 19.6205            -4.37515
 19.6875            -3.11722
 19.7545            -1.78835
 19.8214            -0.50921
 19.8884             0.58983
 19.9554             1.43202
 20.0223             2.03142
 20.0893             2.48754
 20.1562             2.85396
 20.2232             3.15185
 20.2902             3.39229
 20.3571             3.58254
 20.4241             3.73473
 20.4911             3.85590
 20.5580             3.95325
 20.6250             4.03132
 20.6920             4.09453
 20.7589             4.14572
 20.8259             4.18762
 20.8929             4.22200
 20.9598             4.25054
 21.0268             4.27436
 21.0938             4.29450
 21.1607             4.31168
 21.2277             4.32651
 21.2946             4.33947
 21.3616             4.35092
 21.4286             4.36118
 21.4955             4.37046
 21.5625             4.37898
 21.6295             4.38684
 21.6964             4.39421
 21.7634             4.40113
 21.8304             4.40772
 21.8973             4.41399
 21.9643             4.42004
 22.0312             4.42584
 22.0982             4.43148
 22.1652             4.43692
 22.2321             4.44224
 22.2991             4.44739
 22.3661             4.45244
 22.4330             4.45733
 22.5000             4.46214
 22.5670             4.46680
 22.6339             4.47138
 22.7009             4.47582
 22.7679             4.48018
 22.8348             4.48440
 22.9018             4.48855
 22.9688             4.49255
 23.0357             4.49648
 23.1027             4.50027
 23.1696             4.50399
 23.2366             4.50757
 23.3036             4.51107
 23.3705             4.51444
 23.4375             4.51773
 23.5045             4.52089
 23.5714             4.52397
 23.6384             4.52692
 23.7054             4.52980
 23.7723             4.53255
 23.8393             4.53522
 23.9062             4.53777
 23.9732             4.54025
 24.0402             4.54260
 24.1071             4.54489
 24.1741             4.54706
 24.2411             4.54916
 24.3080             4.55115
 24.3750             4.55307
 24.4420             4.55490
 24.5089             4.55665
 24.5759             4.55831
 24.6429             4.55990
 24.7098             4.56141
 24.7768             4.56285
 24.8438             4.56422
 24.9107             4.56552
 24.9777             4.56675
 25.0446             4.56792
 25.1116             4.56902
 25.1786             4.57007
 25.2455             4.57106
 25.3125             4.57200
 25.3795             4.57288
 25.4464             4.57372
 25.5134             4.57451
 25.5804             4.57525
 25.6473             4.57596
 25.7143             4.57662
 25.7812             4.57725
 25.8482             4.57784
 25.9152             4.57840
 25.9821             4.57893
 26.0491             4.57944
 26.1161             4.57992
 26.1830             4.58038
 26.2500             4.58081
 26.3170             4.58123
 26.3839             4.58163
 26.4509             4.58202
 26.5179             4.58239
 26.5848             4.58276
 26.6518             4.58311
 26.7188             4.58347
 26.7857             4.58380
 26.8527             4.58415
 26.9196             4.58448
 26.9866             4.58484
 27.0536             4.58517
 27.1205             4.58553
 27.1875             4.58586
 27.2545             4.58624
 27.3214             4.58659
 27.3884             4.58698
 27.4554             4.58735
 27.5223             4.58776
 27.5893             4.58816
 27.6562             4.58860
 27.7232             4.58902
 27.7902             4.58950
 27.8571             4.58996
 27.9241             4.59047
 27.9911             4.59096
 28.0580             4.59152
 28.1250             4.59205
 28.1920             4.59264
 28.2589             4.59322
 28.3259             4.59386
 28.3929             4.59448
 28.4598             4.59517
 28.5268             4.59584
 28.5938             4.59658
 28.6607             4.59730
 28.7277             4.59809
 28.7946             4.59886
 28.8616             4.59971
 28.9286             4.60053
 28.9955             4.60143
 29.0625             4.60230
 29.1295             4.60326
 29.1964             4.60418
 29.2634             4.60519
 29.3304             4.60617
 29.3973             4.60724
 29.4643             4.60827
 29.5312             4.60939
 29.5982             4.61047
 29.6652             4.61165
 29.7321             4.61278
 29.7991             4.61401
 29.8661             4.61519
 29.9330             4.61647
